"Time (s)","X (rad/s)","Y (rad/s)","Z (rad/s)"
4.889928300E-2,-2.972750068E-1,-3.990249932E-1,-4.824874997E-1
5.139189900E-2,-3.632749915E-1,-4.309250116E-1,-4.483875036E-1
5.387867000E-2,-4.335374832E-1,-4.745124876E-1,-4.090625048E-1
5.636889600E-2,-5.047624707E-1,-5.266249776E-1,-3.695999980E-1
5.885797300E-2,-5.781875253E-1,-5.883625150E-1,-3.334375024E-1
6.134777100E-2,-6.527125239E-1,-6.608250141E-1,-2.908124924E-1
6.383735700E-2,-7.293000221E-1,-7.342500091E-1,-2.514874935E-1
6.632693400E-2,-8.102874756E-1,-8.162000179E-1,-2.184875011E-1
6.881651300E-2,-8.826124668E-1,-8.842625022E-1,-1.843875051E-1
7.130618300E-2,-9.486125112E-1,-9.512249827E-1,-1.482249945E-1
7.379582300E-2,-1.015575051E0,-1.016262531E0,-1.194875017E-1
7.628552500E-2,-1.090100050E0,-1.076900005E0,-9.075000137E-2
7.877520800E-2,-1.161462545E0,-1.143862486E0,-6.627500057E-2
8.126476700E-2,-1.223199964E0,-1.215224981E0,-3.973750025E-2
8.375436300E-2,-1.282737494E0,-1.284387469E0,-1.209999993E-2
8.624402100E-2,-1.330587506E0,-1.353549957E0,1.141249947E-2
8.873366400E-2,-1.365787506E0,-1.423812509E0,2.832499892E-2
9.122336500E-2,-1.390262485E0,-1.492974997E0,4.647500068E-2
9.371304900E-2,-1.404012442E0,-1.556774974E0,6.036249921E-2
9.620260900E-2,-1.408275008E0,-1.612187505E0,6.984999776E-2
9.869220500E-2,-1.400849938E0,-1.648350000E0,7.837499678E-2
1.011818720E-1,-1.391362548E0,-1.670762539E0,8.057499677E-2
1.036715150E-1,-1.377475023E0,-1.675987482E0,7.631249726E-2
1.061610820E-1,-1.354099989E0,-1.665400028E0,6.888750196E-2
1.086506710E-1,-1.321099997E0,-1.642987490E0,5.609999970E-2
1.111403800E-1,-1.276412487E0,-1.616449952E0,3.684999794E-2
1.136300540E-1,-1.233787537E0,-1.581249952E0,1.457499992E-2
1.161197290E-1,-1.189100027E0,-1.540825009E0,-9.899999946E-3
1.186093870E-1,-1.138087511E0,-1.490774989E0,-3.863750026E-2
1.210990840E-1,-1.084874988E0,-1.435500026E0,-6.421250105E-2
1.235887700E-1,-1.027400017E0,-1.382287502E0,-8.978749812E-2
1.260783290E-1,-9.688249826E-1,-1.323712468E0,-1.163249984E-1
1.285679260E-1,-9.124500155E-1,-1.275862455E0,-1.376374960E-1
1.310575790E-1,-8.475499749E-1,-1.226912498E0,-1.610125005E-1
1.335472220E-1,-7.847124934E-1,-1.186487436E0,-1.823250055E-1
1.360369220E-1,-7.261375189E-1,-1.150324941E0,-2.004749924E-1
1.385266060E-1,-6.654999852E-1,-1.119387507E0,-2.184875011E-1
1.410161660E-1,-6.102250218E-1,-1.094912529E0,-2.333374918E-1
1.435057620E-1,-5.559124947E-1,-1.074699998E0,-2.451625019E-1
1.459954110E-1,-5.090249777E-1,-1.047062516E0,-2.546499968E-1
1.484850540E-1,-4.686000049E-1,-1.018324971E0,-2.589125037E-1
1.509747540E-1,-4.366999865E-1,-9.960500002E-1,-2.600125074E-1
1.534644380E-1,-4.036999941E-1,-9.767999649E-1,-2.620750070E-1
1.559539980E-1,-3.781250119E-1,-9.619500041E-1,-2.568500042E-1
1.584435940E-1,-3.579125106E-1,-9.502624869E-1,-2.451625019E-1
1.609332920E-1,-3.388000131E-1,-9.374749660E-1,-2.355374992E-1
1.634229670E-1,-3.206500113E-1,-9.300500154E-1,-2.195875049E-1
1.659126180E-1,-3.111625016E-1,-9.224874973E-1,-2.014375031E-1
1.684022770E-1,-2.994749844E-1,-9.107999802E-1,-1.823250055E-1
1.708918400E-1,-2.887499928E-1,-9.107999802E-1,-1.632124931E-1
1.733814310E-1,-2.727999985E-1,-9.140999913E-1,-1.365374923E-1
1.758710740E-1,-2.611125112E-1,-9.161624908E-1,-1.109625027E-1
1.783607160E-1,-2.505249977E-1,-9.204249978E-1,-8.332499862E-2
1.808504170E-1,-2.440624982E-1,-9.204249978E-1,-5.775000155E-2
1.833401010E-1,-2.377374917E-1,-9.055749774E-1,-3.753750026E-2
1.858296610E-1,-2.366375029E-1,-8.842625022E-1,-1.636249945E-2
1.883192570E-1,-2.345750034E-1,-8.566250205E-1,3.849999979E-3
1.908089340E-1,-2.377374917E-1,-8.245875239E-1,1.773750037E-2
1.932985770E-1,-2.429624945E-1,-7.767375112E-1,2.199999988E-2
1.957882780E-1,-2.472250015E-1,-7.257249951E-1,2.309999987E-2
1.982779620E-1,-2.494249940E-1,-6.703125238E-1,2.199999988E-2
2.007674880E-1,-2.536875010E-1,-6.085749865E-1,1.567500085E-2
2.032570840E-1,-2.557500005E-1,-5.543999672E-1,6.049999967E-3
2.057467920E-1,-2.547875047E-1,-4.958249927E-1,-4.537499975E-3
2.082364670E-1,-2.557500005E-1,-4.372499883E-1,-2.062499896E-2
2.107261180E-1,-2.557500005E-1,-3.808749914E-1,-4.083750024E-2
2.132157760E-1,-2.547875047E-1,-3.244999945E-1,-5.884999782E-2
2.157053190E-1,-2.579500079E-1,-2.638624907E-1,-8.222500235E-2
2.181949100E-1,-2.653749883E-1,-2.095499933E-1,-1.046374962E-1
2.206846190E-1,-2.685374916E-1,-1.574375033E-1,-1.280124933E-1
2.231742930E-1,-2.739000022E-1,-1.062875018E-1,-1.515250057E-1
2.256639490E-1,-2.781625092E-1,-5.843750015E-2,-1.706375033E-1
2.281536070E-1,-2.792625129E-1,-2.543750033E-2,-1.854874939E-1
2.306433040E-1,-2.750000060E-1,-3.024999984E-3,-2.036374956E-1
2.331329900E-1,-2.653749883E-1,3.299999982E-3,-2.173874974E-1
2.356225490E-1,-2.622124851E-1,9.624999948E-3,-2.227499932E-1
2.381121460E-1,-2.653749883E-1,1.608750038E-2,-2.301750034E-1
2.406018040E-1,-2.674374878E-1,1.718750037E-2,-2.375999987E-1
2.430914470E-1,-2.716999948E-1,2.351249941E-2,-2.461249977E-1
2.455811470E-1,-2.802250087E-1,2.144999988E-2,-2.557500005E-1
2.480708310E-1,-2.898499966E-1,1.182499994E-2,-2.663374841E-1
2.505603910E-1,-3.037374914E-1,4.399999976E-3,-2.748624980E-1
2.530499870E-1,-3.239499927E-1,-7.287499961E-3,-2.919124961E-1
2.555396690E-1,-3.473249972E-1,-1.154999994E-2,-3.089624941E-1
2.580293120E-1,-3.771624863E-1,-9.487500414E-3,-3.174875081E-1
2.605188790E-1,-4.101625085E-1,2.199999988E-3,-3.260124922E-1
2.630084680E-1,-4.472874999E-1,2.461249940E-2,-3.356375098E-1
2.654981770E-1,-4.878500104E-1,7.246249914E-2,-3.482874930E-1
2.679878500E-1,-5.325375199E-1,1.533125043E-1,-3.579125106E-1
2.704774980E-1,-5.963374972E-1,2.916375101E-1,-3.610749841E-1
2.729671560E-1,-6.729249954E-1,4.683249891E-1,-3.738625050E-1
2.754568530E-1,-7.570750117E-1,6.429499984E-1,-3.887124956E-1
2.779465390E-1,-8.507124782E-1,8.216999769E-1,-3.962749839E-1
2.804360980E-1,-9.506750107E-1,1.022862554E0,-4.025999904E-1
2.829256940E-1,-1.066725016E0,1.236675024E0,-4.111250043E-1
2.854153620E-1,-1.187999964E0,1.477162480E0,-4.217124879E-1
2.879050050E-1,-1.306112528E0,1.714487433E0,-4.355999827E-1
2.903947060E-1,-1.370049953E0,1.832737446E0,-4.313375056E-1
2.928843900E-1,-1.301849961E0,1.666637540E0,-3.877499998E-1
2.953739500E-1,-1.159262538E0,1.302675009E0,-3.356375098E-1
2.978635460E-1,-1.064525008E0,9.972875118E-1,-3.238124847E-1
3.003532570E-1,-1.042250037E0,8.567624688E-1,-3.504875004E-1
3.028429320E-1,-1.046512485E0,8.216999769E-1,-3.738625050E-1
3.053325830E-1,-1.034824967E0,8.430125117E-1,-3.684999943E-1
3.078222420E-1,-9.944000244E-1,8.780750036E-1,-3.356375098E-1
3.103118050E-1,-9.187750220E-1,8.717499971E-1,-2.898499966E-1
3.128013960E-1,-8.219749928E-1,7.972249985E-1,-2.546499968E-1
3.152911040E-1,-7.048249841E-1,6.641250253E-1,-2.418625057E-1
3.177807780E-1,-5.781875253E-1,5.087500215E-1,-2.494249940E-1
3.202704300E-1,-4.558124840E-1,3.843125105E-1,-2.557500005E-1
3.227600880E-1,-3.462249935E-1,3.151499927E-1,-2.536875010E-1
3.252497900E-1,-2.547875047E-1,3.097875118E-1,-2.440624982E-1
3.277394760E-1,-1.737999916E-1,3.448500037E-1,-2.355374992E-1
3.302289900E-1,-1.025749967E-1,3.937999904E-1,-2.292124927E-1
3.327185550E-1,-4.083750024E-2,4.417875111E-1,-2.206874937E-1
3.352082680E-1,1.553750038E-2,4.842749834E-1,-2.131250054E-1
3.376979370E-1,6.668750197E-2,5.311625004E-1,-2.036374956E-1
3.401874740E-1,1.091749966E-1,5.812125206E-1,-1.940124929E-1
3.426770680E-1,1.401125044E-1,6.461125016E-1,-1.854874939E-1
3.451667760E-1,1.614249945E-1,7.258625031E-1,-1.791625023E-1
3.476564510E-1,1.762750000E-1,8.078125119E-1,-1.706375033E-1
3.501461020E-1,1.836999953E-1,8.897625208E-1,-1.652749926E-1
3.526357610E-1,1.836999953E-1,9.642875195E-1,-1.589500010E-1
3.551254530E-1,1.805374920E-1,1.024924994E0,-1.556500047E-1
3.576151380E-1,1.677500010E-1,1.073874950E0,-1.515250057E-1
3.601046980E-1,1.538625062E-1,1.097249985E0,-1.450625062E-1
3.625942940E-1,1.336500049E-1,1.107975006E0,-1.387374997E-1
3.650839570E-1,1.049124971E-1,1.098350048E0,-1.280124933E-1
3.675736000E-1,6.984999776E-2,1.066450000E0,-1.194875017E-1
3.700631580E-1,2.722499892E-2,1.017500043E0,-1.067000031E-1
3.725527470E-1,-1.952499896E-2,9.451749921E-1,-9.184999764E-2
3.750424560E-1,-6.847500056E-2,8.610249758E-1,-8.222500235E-2
3.775321290E-1,-1.153625026E-1,7.642250061E-1,-7.479999959E-2
3.800217810E-1,-1.728374958E-1,6.674249768E-1,-6.627500057E-2
3.825114390E-1,-2.303124964E-1,5.609999895E-1,-6.421250105E-2
3.850011310E-1,-2.919124961E-1,4.588375092E-1,-6.104999781E-2
3.874908170E-1,-3.558500111E-1,3.587374985E-1,-5.252499878E-2
3.899803760E-1,-4.228124917E-1,2.693625093E-1,-4.606249928E-2
3.924699720E-1,-4.910124838E-1,1.853500009E-1,-3.753750026E-2
3.949596350E-1,-5.579749942E-1,1.128875017E-1,-3.973750025E-2
3.974492780E-1,-6.228749752E-1,4.482499883E-2,-5.032499880E-2
3.999389790E-1,-6.836500168E-1,-1.374999993E-2,-5.995000154E-2
4.024286630E-1,-7.420874834E-1,-5.527500063E-2,-7.479999959E-2
4.049182230E-1,-7.953000069E-1,-9.253749996E-2,-9.927500039E-2
4.074078190E-1,-8.421875238E-1,-1.179749966E-1,-1.259499937E-1
4.098975260E-1,-8.815125227E-1,-1.296624988E-1,-1.610125005E-1
4.123872010E-1,-9.156125188E-1,-1.307625026E-1,-2.036374956E-1
4.148768330E-1,-9.358249903E-1,-1.233374998E-1,-2.472250015E-1
4.173664920E-1,-9.528750181E-1,-1.137124971E-1,-2.950749993E-1
4.198560550E-1,-9.623624682E-1,-9.459999949E-2,-3.451249897E-1
4.223456460E-1,-9.602999687E-1,-6.902500242E-2,-3.962749839E-1
4.248353540E-1,-9.549375176E-1,-2.653750032E-2,-4.461874962E-1
4.273250280E-1,-9.369249940E-1,2.034999989E-2,-4.993999898E-1
4.298146940E-1,-9.134125113E-1,7.892499864E-2,-5.516499877E-1
4.323043520E-1,-8.857749701E-1,1.447875053E-1,-5.995000005E-1
4.347940490E-1,-8.518124819E-1,2.150499970E-1,-6.495500207E-1
4.372837350E-1,-8.134499788E-1,2.938374877E-1,-6.962999701E-1
4.397732940E-1,-7.719249725E-1,3.854124844E-1,-7.357624769E-1
4.422628910E-1,-7.314999700E-1,4.790500104E-1,-7.739874721E-1
4.447525430E-1,-6.921749711E-1,5.812125206E-1,-8.123499751E-1
4.472421860E-1,-6.474875212E-1,6.876375079E-1,-8.474124670E-1
4.497317530E-1,-6.026625037E-1,7.950249910E-1,-8.835750222E-1
4.522213420E-1,-5.612750053E-1,9.025499821E-1,-9.145125151E-1
4.547110230E-1,-5.197499990E-1,1.006912470E0,-9.486125112E-1
4.572006970E-1,-4.802874923E-1,1.111137509E0,-9.857375026E-1
4.596903490E-1,-4.463250041E-1,1.210137486E0,-1.025200009E0
4.621800070E-1,-4.153875113E-1,1.311200023E0,-1.060262442E0
4.646697040E-1,-3.909125030E-1,1.405937433E0,-1.093262553E0
4.671593890E-1,-3.760625124E-1,1.492149949E0,-1.120900035E0
4.696489250E-1,-3.675374985E-1,1.580425024E0,-1.145375013E0
4.721385210E-1,-3.675374985E-1,1.662374973E0,-1.176312447E0
4.746281840E-1,-3.738625050E-1,1.747487545E0,-1.208212495E0
4.771178270E-1,-3.866499960E-1,1.828474998E0,-1.238049984E0
4.796075270E-1,-4.068624973E-1,1.909325004E0,-1.273112535E0
4.820972110E-1,-4.324375093E-1,1.984812498E0,-1.310374975E0
4.845867560E-1,-4.654375017E-1,2.059337378E0,-1.353000045E0
4.870763520E-1,-4.995374978E-1,2.130699873E0,-1.395487547E0
4.895660150E-1,-5.377625227E-1,2.199862480E0,-1.431650043E0
4.920556580E-1,-5.803874731E-1,2.264762402E0,-1.470012546E0
4.945453590E-1,-6.271374822E-1,2.328562498E0,-1.506175041E0
4.970350430E-1,-6.751250029E-1,2.386037588E0,-1.540274978E0
4.995246160E-1,-7.155500054E-1,2.440350056E0,-1.575337529E0
5.020142120E-1,-7.602375150E-1,2.487099886E0,-1.610537529E0
5.045039200E-1,-8.049250245E-1,2.526562452E0,-1.642437458E0
5.069935950E-1,-8.432874680E-1,2.554199934E0,-1.675437450E0
5.094832460E-1,-8.729875088E-1,2.571249962E0,-1.711599946E0
5.119729050E-1,-8.996624947E-1,2.559562445E0,-1.740337491E0
5.144624680E-1,-9.039250016E-1,2.507312536E0,-1.753124952E0
5.169520590E-1,-8.837124705E-1,2.412712574E0,-1.734974980E0
5.194417670E-1,-8.453499675E-1,2.289237499E0,-1.682862520E0
5.219314410E-1,-7.921375036E-1,2.172087431E0,-1.613700032E0
5.244210980E-1,-7.346624732E-1,2.086012602E0,-1.544537544E0
5.269107560E-1,-6.793875098E-1,2.033762455E0,-1.478537440E0
5.294004530E-1,-6.208124757E-1,1.984812498E0,-1.415699959E0
5.318901390E-1,-5.527499914E-1,1.910287499E0,-1.340212464E0
5.343796980E-1,-4.728625119E-1,1.815687537E0,-1.255100012E0
5.368692940E-1,-3.781250119E-1,1.697574973E0,-1.166687489E0
5.393590310E-1,-2.739000022E-1,1.570799947E0,-1.081575036E0
5.418487060E-1,-1.717374921E-1,1.430412531E0,-9.953625202E-1
5.443383570E-1,-7.493750006E-2,1.280400038E0,-9.102500081E-1
5.468280160E-1,2.626249939E-2,1.130249977E0,-8.282999992E-1
5.493175790E-1,1.124750003E-1,9.822999835E-1,-7.409874797E-1
5.518071700E-1,1.836999953E-1,8.365499973E-1,-6.484500170E-1
5.542968830E-1,2.443374991E-1,6.993250251E-1,-5.559124947E-1
5.567865570E-1,3.018124998E-1,5.726875067E-1,-4.643374979E-1
5.592762090E-1,3.444375098E-1,4.609000087E-1,-3.792249858E-1
5.617658670E-1,3.774375021E-1,3.650625050E-1,-2.993375063E-1
5.642555640E-1,3.987500072E-1,2.853125036E-1,-2.227499932E-1
5.667452500E-1,4.113999903E-1,2.096875012E-1,-1.578499973E-1
5.692348180E-1,4.178625047E-1,1.416250020E-1,-1.025749967E-1
5.717244140E-1,4.113999903E-1,7.246249914E-2,-5.678749830E-2
5.742140770E-1,4.071374834E-1,-2.062499989E-3,-2.804999985E-2
5.767037200E-1,4.039750099E-1,-8.607500046E-2,-9.899999946E-3
5.791934210E-1,3.987500072E-1,-1.787499934E-1,-2.474999987E-3
5.816831050E-1,3.911874890E-1,-2.744500041E-1,-1.374999993E-3
5.841726800E-1,3.826625049E-1,-3.649249971E-1,-5.637499969E-3
5.866622760E-1,3.731749952E-1,-4.479750097E-1,-2.062499896E-2
5.891519380E-1,3.646500111E-1,-5.086125135E-1,-4.606249928E-2
5.916415810E-1,3.561249971E-1,-5.308874846E-1,-9.295000136E-2
5.941312820E-1,3.455374837E-1,-5.234624743E-1,-1.461624950E-1
5.966209660E-1,3.359124959E-1,-4.883999825E-1,-1.929125041E-1
5.991105500E-1,3.242250085E-1,-4.298250079E-1,-2.418625057E-1
6.016001460E-1,3.114374876E-1,-3.553000093E-1,-2.833875120E-1
6.040898530E-1,3.008500040E-1,-2.681249976E-1,-3.217499852E-1
6.065795280E-1,2.943874896E-1,-1.819124967E-1,-3.525500000E-1
6.090691790E-1,2.890250087E-1,-9.679999948E-2,-3.812874854E-1
6.115588380E-1,2.912249863E-1,-1.264999993E-2,-4.025999904E-1
6.140484050E-1,2.975499928E-1,6.710000336E-2,-4.217124879E-1
6.165379960E-1,3.071750104E-1,1.469874978E-1,-4.324375093E-1
6.190277050E-1,3.210625052E-1,2.215124965E-1,-4.398624897E-1
6.215173790E-1,3.348124921E-1,2.906749845E-1,-4.387624860E-1
6.240070300E-1,3.507624865E-1,3.513124883E-1,-4.355999827E-1
6.264966880E-1,3.720749915E-1,4.065875113E-1,-4.281750023E-1
6.289863950E-1,3.976500034E-1,4.588375092E-1,-4.185499847E-1
6.314760810E-1,4.252874851E-1,4.992625117E-1,-4.153875113E-1
6.339656400E-1,4.519625008E-1,5.396875143E-1,-4.142875075E-1
6.364552370E-1,4.890874922E-1,5.715875030E-1,-4.133250117E-1
6.389449330E-1,5.274500251E-1,6.003249884E-1,-4.142875075E-1
6.414345760E-1,5.743374825E-1,6.205375195E-1,-4.196499884E-1
6.439242770E-1,6.338750124E-1,6.333249807E-1,-4.292750061E-1
6.464139610E-1,6.976749897E-1,6.344249845E-1,-4.377999902E-1
6.489035210E-1,7.732999921E-1,6.258999705E-1,-4.472874999E-1
6.513931170E-1,8.520874977E-1,5.981249809E-1,-4.632374942E-1
6.538827840E-1,9.340375066E-1,5.619624853E-1,-4.877125025E-1
6.563724270E-1,1.010625005E0,5.257999897E-1,-5.090249777E-1
6.588621270E-1,1.080887437E0,4.970625043E-1,-5.303375125E-1
6.613518110E-1,1.138362527E0,4.725874960E-1,-5.346000195E-1
6.638413710E-1,1.181949973E0,4.577375054E-1,-5.357000232E-1
6.663309670E-1,1.206424952E0,4.555374980E-1,-5.303375125E-1
6.688206990E-1,1.217012525E0,4.683249891E-1,-5.164499879E-1
6.713103740E-1,1.216050029E0,4.916999936E-1,-5.016000271E-1
6.738000250E-1,1.209587455E0,5.322625041E-1,-4.962374866E-1
6.762896830E-1,1.188274980E0,5.854749680E-1,-4.899125099E-1
6.787794090E-1,1.161737442E0,6.503750086E-1,-4.919750094E-1
6.812690950E-1,1.128737450E0,7.238000035E-1,-5.005000234E-1
6.837586540E-1,1.095737457E0,8.035500050E-1,-5.207124949E-1
6.862482510E-1,1.059574962E0,8.866000175E-1,-5.505499840E-1
6.887379140E-1,1.020249963E0,9.696499705E-1,-5.846499801E-1
6.912275570E-1,9.733625054E-1,1.059025049E0,-6.197124720E-1
6.937172760E-1,9.275749922E-1,1.149500012E0,-6.601374745E-1
6.962069600E-1,8.754624724E-1,1.244099975E0,-6.962999701E-1
6.986965200E-1,8.211500049E-1,1.338837504E0,-7.293000221E-1
7.011861160E-1,7.616124749E-1,1.423949957E0,-7.569375038E-1
7.036758240E-1,7.019374967E-1,1.509199977E0,-7.750874758E-1
7.061654990E-1,6.370375156E-1,1.585787535E0,-7.932375073E-1
7.086551700E-1,5.732374787E-1,1.650687456E0,-8.016250134E-1
7.111448290E-1,5.200250149E-1,1.712424994E0,-8.027250171E-1
7.136343910E-1,4.721750021E-1,1.771000028E0,-7.964000106E-1
7.161239820E-1,4.369750023E-1,1.832599998E0,-7.932375073E-1
7.186136910E-1,4.156624973E-1,1.894337535E0,-7.921375036E-1
7.211033650E-1,4.019125104E-1,1.962537527E0,-7.921375036E-1
7.235930120E-1,3.976500034E-1,2.036925077E0,-7.964000106E-1
7.260826700E-1,4.030124843E-1,2.126437426E0,-8.091874719E-1
7.285722330E-1,4.135999978E-1,2.210449934E0,-8.294000030E-1
7.310618240E-1,4.295499921E-1,2.292399883E0,-8.485124707E-1
7.335515320E-1,4.434374869E-1,2.368987560E0,-8.633624911E-1
7.360412060E-1,4.679124951E-1,2.436087370E0,-8.718875051E-1
7.385308340E-1,4.881249964E-1,2.497824907E0,-8.687250018E-1
7.410204920E-1,5.115000010E-1,2.547874928E0,-8.570374846E-1
7.435101890E-1,5.422999859E-1,2.595725060E0,-8.357250094E-1
7.459998750E-1,5.752999783E-1,2.638212442E0,-8.058875203E-1
7.484894340E-1,6.125624776E-1,2.677675009E0,-7.708249688E-1
7.509790300E-1,6.529874802E-1,2.715899944E0,-7.303999662E-1
7.534687140E-1,6.987749934E-1,2.740375042E0,-6.899750233E-1
7.559583890E-1,7.541875243E-1,2.746837378E0,-6.452875137E-1
7.584480400E-1,8.126249909E-1,2.735150099E0,-6.006000042E-1
7.609376990E-1,8.754624724E-1,2.712737560E0,-5.537124872E-1
7.634273960E-1,9.403625131E-1,2.680837393E0,-5.016000271E-1
7.659170810E-1,9.935749769E-1,2.632987499E0,-4.472874999E-1
7.684066260E-1,1.024512529E0,2.565887451E0,-3.994374871E-1
7.708962220E-1,1.023412466E0,2.481874943E0,-3.547500074E-1
7.733858850E-1,9.946749806E-1,2.401987553E0,-3.185875118E-1
7.758755280E-1,9.637374878E-1,2.350975037E0,-2.993375063E-1
7.783652290E-1,9.403625131E-1,2.333925009E0,-2.833875120E-1
7.808549130E-1,9.147874713E-1,2.331724882E0,-2.781625092E-1
7.833444530E-1,8.860499859E-1,2.339287519E0,-2.844874859E-1
7.858340490E-1,8.520874977E-1,2.348774910E0,-3.036000133E-1
7.883237120E-1,8.126249909E-1,2.358399868E0,-3.280749917E-1
7.908133550E-1,7.775624990E-1,2.373250008E0,-3.579125106E-1
7.933030560E-1,7.466250062E-1,2.389199972E0,-3.866499960E-1
7.957927400E-1,7.178875208E-1,2.398824930E0,-4.207499921E-1
7.982822900E-1,6.850249767E-1,2.404187441E0,-4.611749947E-1
8.007718860E-1,6.540874839E-1,2.406250000E0,-4.984374940E-1
8.032615930E-1,6.285125017E-1,2.404187441E0,-5.377625227E-1
8.057512680E-1,5.955125093E-1,2.384937525E0,-5.846499801E-1
8.082409190E-1,5.625125170E-1,2.355237484E0,-6.271374822E-1
8.107305780E-1,5.263500214E-1,2.316874981E0,-6.558749676E-1
8.132202700E-1,5.178250074E-1,2.280712605E0,-6.686624885E-1
8.157099560E-1,5.189250112E-1,2.250874996E0,-6.697624922E-1
8.181995150E-1,5.040749907E-1,2.209349871E0,-6.749874949E-1
8.206891110E-1,4.955500066E-1,2.173187494E0,-6.771875024E-1
8.231787740E-1,4.944500029E-1,2.140187502E0,-6.697624922E-1
8.256684170E-1,4.923875034E-1,2.116812468E0,-6.643999815E-1
8.281580940E-1,4.966500103E-1,2.102925062E0,-6.569749713E-1
8.306477780E-1,5.018749833E-1,2.093437433E0,-6.462500095E-1
8.331373380E-1,5.103999972E-1,2.083812475E0,-6.421250105E-1
8.356269340E-1,5.296499729E-1,2.072124958E0,-6.335999966E-1
8.381165960E-1,5.572875142E-1,2.058237553E0,-6.228749752E-1
8.406062390E-1,5.880874991E-1,2.040225029E0,-6.197124720E-1
8.430959450E-1,6.275500059E-1,2.020974874E0,-6.154500246E-1
8.455856290E-1,6.689375043E-1,1.998700023E0,-6.100875139E-1
8.480751890E-1,7.200874686E-1,1.976287484E0,-6.026625037E-1
8.505647850E-1,7.701374888E-1,1.956074953E0,-5.920749903E-1
8.530544920E-1,8.254125118E-1,1.932700038E0,-5.813499689E-1
8.555441670E-1,8.839874864E-1,1.914549947E0,-5.685625076E-1
8.580338080E-1,9.361000061E-1,1.895437479E0,-5.516499877E-1
